"time","x","y","position","velocity","acceleration","jerk","heading"
0,490.3,304.743,0,0,0,0,-180
0.02,490.126,304.742,0.173577,8.67887,433.944,21697.2,-179.998
0.04,489.953,304.742,0.347444,8.69331,0.721803,-21661.1,-179.995
0.06,489.778,304.742,0.522021,8.72887,1.7782,52.8197,-179.993
0.08,489.604,304.742,0.695887,8.69331,-1.7782,-177.82,-179.99
0.1,489.431,304.742,0.869465,8.67887,-0.721803,52.8197,-179.988
0.12,489.2,304.742,1.09962,11.5077,141.444,7108.27,-179.984
0.14,488.78,304.742,1.51964,21.0011,474.665,16661.1,-179.977
0.16,488.36,304.742,1.93966,21.0011,-2.46643e-07,-23733.3,-179.97
0.18,487.831,304.741,2.46944,26.4888,274.386,13719.3,-179.95
0.2,487.279,304.741,3.02079,27.5676,53.9412,-11022.2,-179.928
0.22,486.625,304.74,3.67545,32.7331,258.276,10216.8,-179.898
0.24,485.927,304.739,4.37271,34.863,106.496,-7589.01,-179.859
0.26,485.174,304.736,5.12558,37.6432,139.01,1625.68,-179.811
0.28,484.37,304.734,5.92961,40.2019,127.931,-553.933,-179.752
0.3,483.553,304.73,6.74726,40.8822,34.015,-4695.8,-179.684
0.32,482.731,304.725,7.5695,41.1124,11.5102,-1125.24,-179.607
0.34,481.907,304.719,8.39349,41.1993,4.348,-358.111,-179.524
0.36,481.081,304.712,9.21893,41.2719,3.62932,-35.934,-179.436
0.38,480.252,304.702,10.0484,41.475,10.1552,326.295,-179.334
0.4,479.421,304.692,10.8788,41.5189,2.1951,-398.006,-179.229
0.42,478.588,304.681,11.7118,41.6495,6.52901,216.695,-179.115
0.44,477.753,304.666,12.5471,41.7673,5.89157,-31.8721,-178.993
0.46,476.918,304.651,13.3826,41.7751,0.387576,-275.2,-178.867
0.48,476.079,304.633,14.2221,41.9723,9.86298,473.77,-178.731
0.5,475.237,304.613,15.0636,42.0756,5.16508,-234.895,-178.588
0.52,474.394,304.592,15.9069,42.1635,4.39169,-38.6696,-178.439
0.54,473.551,304.568,16.751,42.2041,2.03338,-117.916,-178.284
0.56,472.703,304.542,17.599,42.4015,9.86692,391.677,-178.119
0.58,471.855,304.512,18.448,42.4497,2.41368,-372.662,-177.951
0.6,471.004,304.481,19.2992,42.5604,5.53043,155.838,-177.772
0.62,470.152,304.446,20.152,42.6403,3.99673,-76.6851,-177.588
0.64,469.297,304.408,21.0076,42.7811,7.04103,152.215,-177.398
0.66,468.442,304.369,21.8638,42.8078,1.33641,-285.231,-177.203
0.68,467.584,304.325,22.723,42.962,7.70556,318.458,-176.998
0.7,466.725,304.279,23.5828,42.9895,1.37511,-316.523,-176.788
0.72,465.864,304.229,24.4452,43.1199,6.52245,257.367,-176.573
0.74,465.001,304.175,25.3099,43.2329,5.65225,-43.5101,-176.351
0.76,464.138,304.119,26.1748,43.2472,0.711006,-247.062,-176.125
0.78,463.274,304.058,27.0415,43.3329,4.28417,178.658,-175.894
0.8,462.407,303.994,27.9104,43.4447,5.59164,65.3736,-175.656
0.82,461.54,303.927,28.7796,43.4639,0.9617,-231.497,-175.414
0.84,460.672,303.855,29.6508,43.5586,4.73551,188.691,-175.17
0.86,459.804,303.78,30.5224,43.5792,1.02866,-185.343,-174.922
0.88,458.935,303.701,31.3947,43.6148,1.77997,37.5655,-174.669
0.9,458.065,303.618,32.2689,43.712,4.85798,153.901,-174.414
0.92,457.195,303.531,33.1426,43.6817,-1.51348,-318.573,-174.159
0.94,456.327,303.44,34.0161,43.6761,-0.278979,61.7253,-173.902
0.96,455.457,303.345,34.891,43.7471,3.5483,191.364,-173.645
0.98,454.589,303.247,35.7647,43.6851,-3.09902,-332.366,-173.39
1,453.722,303.144,36.6376,43.644,-2.05492,52.2049,-173.136
1.02,452.856,303.038,37.51,43.6186,-1.26979,39.2564,-172.885
1.04,451.991,302.928,38.3817,43.5856,-1.64992,-19.0067,-172.638
1.06,451.129,302.815,39.2513,43.4831,-5.12758,-173.883,-172.396
1.08,450.269,302.698,40.1192,43.3941,-4.44953,33.9025,-172.162
1.1,449.412,302.578,40.9851,43.2929,-5.05894,-30.4706,-171.933
1.12,448.557,302.455,41.8482,43.1552,-6.88505,-91.3058,-171.715
1.14,447.707,302.33,42.7074,42.9613,-9.69496,-140.495,-171.508
1.16,446.86,302.202,43.5641,42.832,-6.46435,161.53,-171.312
1.18,446.017,302.072,44.4172,42.6594,-8.62734,-108.149,-171.129
1.2,445.179,301.939,45.2659,42.4311,-11.4176,-139.513,-170.96
1.22,444.345,301.805,46.1105,42.2303,-10.0395,68.905,-170.806
1.24,443.516,301.671,46.95,41.9784,-12.5942,-127.733,-170.67
1.26,442.694,301.534,47.7839,41.6935,-14.2455,-82.5648,-170.552
1.28,441.876,301.397,48.6125,41.4275,-13.3032,47.1112,-170.453
1.3,441.065,301.26,49.4359,41.1698,-12.8832,21.0036,-170.373
1.32,440.259,301.123,50.2528,40.8462,-16.1789,-164.787,-170.312
1.34,439.459,300.986,51.0651,40.6152,-11.5513,231.381,-170.271
1.36,438.666,300.85,51.8695,40.2194,-19.7874,-411.807,-170.254
1.38,437.878,300.714,52.6684,39.9452,-13.7142,303.662,-170.26
1.4,437.098,300.58,53.4603,39.5987,-17.3233,-180.459,-170.286
1.42,436.321,300.447,54.2481,39.3881,-10.5283,339.752,-170.33
1.44,435.552,300.317,55.0289,39.0417,-17.3208,-339.626,-170.394
1.46,434.787,300.188,55.8042,38.7651,-13.8321,174.438,-170.48
1.48,434.029,300.061,56.5727,38.4248,-17.0155,-159.171,-170.589
1.5,433.275,299.937,57.337,38.2123,-10.6228,319.633,-170.715
1.52,432.526,299.815,58.0956,37.9303,-14.1006,-173.889,-170.856
1.54,431.781,299.696,58.8505,37.7472,-9.15286,247.387,-171.012
1.56,431.038,299.58,59.6018,37.5645,-9.13865,0.71071,-171.183
1.58,430.303,299.467,60.3459,37.2034,-18.0551,-445.821,-171.374
1.6,429.569,299.357,61.0885,37.1284,-3.74633,715.437,-171.576
1.62,428.838,299.25,61.827,36.927,-10.0704,-316.205,-171.787
1.64,428.109,299.146,62.5635,36.8251,-5.09577,248.733,-172.007
1.66,427.381,299.046,63.2981,36.7314,-4.6856,20.5081,-172.235
1.68,426.657,298.948,64.029,36.5447,-9.33637,-232.538,-172.475
1.7,425.933,298.854,64.7582,36.4607,-4.19987,256.825,-172.719
1.72,425.21,298.763,65.4872,36.4479,-0.637202,178.134,-172.966
1.74,424.488,298.676,66.2142,36.3512,-4.83397,-209.838,-173.218
1.76,423.768,298.591,66.94,36.2902,-3.05176,89.1104,-173.473
1.78,423.046,298.511,67.6661,36.3027,0.624004,183.788,-173.729
1.8,422.324,298.433,68.3924,36.3162,0.676273,2.61342,-173.986
1.82,421.601,298.359,69.1187,36.315,-0.0607199,-36.8496,-174.242
1.84,420.879,298.287,69.8447,36.2999,-0.754586,-34.6933,-174.498
1.86,420.156,298.219,70.5712,36.324,1.20252,97.8553,-174.751
1.88,419.431,298.155,71.2989,36.3844,3.02051,90.8994,-175.002
1.9,418.705,298.093,72.0272,36.4146,1.51383,-75.334,-175.25
1.92,417.977,298.033,72.7574,36.5097,4.75535,162.076,-175.494
1.94,417.249,297.978,73.4877,36.5163,0.329243,-221.305,-175.733
1.96,416.519,297.925,74.2194,36.5839,3.37866,152.471,-175.97
1.98,415.788,297.875,74.9528,36.671,4.35263,48.6985,-176.2
2,415.053,297.827,75.6888,36.8008,6.49415,107.076,-176.424
2.02,414.319,297.783,76.4247,36.7962,-0.232868,-336.351,-176.644
2.04,413.581,297.742,77.1632,36.924,6.39056,331.171,-176.858
2.06,412.842,297.702,77.9036,37.0196,4.77771,-80.6425,-177.065
2.08,412.101,297.666,78.6455,37.0959,3.81834,-47.9686,-177.266
2.1,411.358,297.631,79.3891,37.1778,4.09325,13.7455,-177.461
2.12,410.613,297.6,80.1345,37.2722,4.71971,31.323,-177.649
2.14,409.866,297.57,80.8829,37.4191,7.3443,131.229,-177.83
2.16,409.118,297.542,81.6313,37.4211,0.103102,-362.06,-178.007
2.18,408.366,297.518,82.3835,37.6103,9.45876,467.783,-178.174
2.2,407.613,297.496,83.1367,37.6583,2.39753,-353.061,-178.334
2.22,406.858,297.474,83.8923,37.7789,6.03453,181.85,-178.489
2.24,406.1,297.455,84.6501,37.8904,5.57287,-23.0831,-178.636
2.26,405.341,297.438,85.4091,37.9535,3.15633,-120.827,-178.775
2.28,404.581,297.423,86.17,38.0447,4.55855,70.1108,-178.911
2.3,403.816,297.409,86.9346,38.2305,9.2897,236.558,-179.034
2.32,403.05,297.397,87.7007,38.3018,3.56683,-286.144,-179.152
2.34,402.283,297.386,88.4684,38.3869,4.25582,34.4493,-179.264
2.36,401.513,297.377,89.2384,38.5012,5.71194,72.8064,-179.368
2.38,400.74,297.37,90.0108,38.6161,5.74784,1.79495,-179.464
2.4,399.966,297.363,90.7851,38.7167,5.02918,-35.933,-179.553
2.42,399.189,297.357,91.562,38.8462,6.47591,72.3367,-179.633
2.44,398.414,297.353,92.337,38.7467,-4.9785,-572.721,-179.706
2.46,397.65,297.349,93.1013,38.2189,-26.3906,-1070.61,-179.774
2.48,396.93,297.347,93.8212,35.9928,-111.304,-4245.69,-179.823
2.5,396.269,297.345,94.4825,33.065,-146.39,-1754.3,-179.867
2.52,395.648,297.344,95.1035,31.0515,-100.675,2285.79,-179.905
2.54,395.109,297.343,95.6422,26.9325,-205.951,-5263.81,-179.927
2.56,394.609,297.343,96.1424,25.0113,-96.0587,5494.61,-179.947
2.58,394.195,297.342,96.5564,20.698,-215.666,-5980.38,-179.961
2.6,393.78,297.342,96.971,20.7335,1.7752,10872.1,-179.976
2.62,393.587,297.342,97.1642,9.65669,-553.838,-27780.7,-179.979
2.64,393.415,297.342,97.3363,8.60669,-52.5,25066.9,-179.982
2.66,393.242,297.342,97.5087,8.62113,0.721803,2661.09,-179.984
2.68,393.069,297.342,97.6818,8.65669,1.7782,52.8197,-179.987
2.7,392.897,297.342,97.8543,8.62113,-1.7782,-177.82,-179.989
