"time","x","y","position","velocity","acceleration","jerk","heading"
0,0,16.5425,0,0,0,0,0
0.02,0.18961,16.5425,0.18961,9.48051,474.025,23701.3,0.000439386
0.04,0.379219,16.5425,0.379219,9.48046,-0.00250001,-23701.4,0.000878772
0.06,0.568829,16.5425,0.568829,9.48051,0.00249858,0.249929,0.00131816
0.08,0.75844,16.5425,0.75844,9.48051,5.82209e-06,-0.124638,0.00175754
0.1,0.948049,16.5425,0.948049,9.48046,-0.00250714,-0.125648,0.00219693
0.12,1.33305,16.5425,1.33305,19.2503,488.49,24424.6,0.0038999
0.14,1.79049,16.5426,1.79049,22.8717,181.069,-15371.1,0.00607132
0.16,2.32349,16.5426,2.32349,26.6501,188.92,392.529,0.00939272
0.18,2.91922,16.5427,2.91922,29.7868,156.836,-1604.19,0.0136686
0.2,3.61082,16.5429,3.61082,34.58,239.66,4141.19,0.0212904
0.22,4.36007,16.5433,4.36007,37.4621,144.107,-4777.66,0.0308772
0.24,5.17865,16.5438,5.17865,40.9293,173.361,1462.7,0.0429085
0.26,6.07031,16.5445,6.07032,44.5832,182.692,466.584,0.0579988
0.28,7.0353,16.5457,7.0353,48.2495,183.316,31.1683,0.0779866
0.3,8.07311,16.5473,8.07311,51.8905,182.051,-63.265,0.102513
0.32,9.18244,16.5495,9.18244,55.4663,178.792,-162.925,0.131903
0.34,10.3613,16.5526,10.3613,58.9447,173.917,-243.759,0.167891
0.36,11.6082,16.5567,11.6082,62.3421,169.872,-202.237,0.210023
0.38,12.9213,16.562,12.9213,65.6559,165.687,-209.248,0.259184
0.4,14.3123,16.569,14.3123,69.5522,194.815,1456.39,0.317976
0.42,15.7667,16.5779,15.7667,72.7203,158.408,-1820.34,0.384549
0.44,17.2939,16.5891,17.294,76.3637,182.168,1187.97,0.46237
0.46,18.8857,16.6032,18.8859,79.5934,161.485,-1034.13,0.549635
0.48,20.5503,16.6206,20.5506,83.2345,182.055,1028.49,0.650435
0.5,22.282,16.6419,22.2824,86.5931,167.931,-706.177,0.763249
0.52,24.0807,16.6678,24.0813,89.9416,167.427,-25.2193,0.890215
0.54,25.9469,16.699,25.9477,93.3227,169.052,81.2338,1.03227
0.56,27.8807,16.7365,27.8819,96.7106,169.394,17.1485,1.19007
0.58,29.8815,16.7811,29.8833,100.066,167.766,-81.4303,1.36599
0.6,31.949,16.8338,31.9514,103.407,167.074,-34.5858,1.5601
0.62,34.0823,16.8958,34.0856,106.709,165.093,-99.0505,1.77395
0.64,36.2802,16.9683,36.2847,109.955,162.289,-140.227,2.00924
0.66,38.5444,17.0528,38.5504,113.286,166.541,212.617,2.26731
0.68,40.8733,17.1506,40.8814,116.55,163.222,-165.97,2.54932
0.7,43.2649,17.2635,43.2757,119.714,158.181,-252.051,2.85682
0.72,45.7212,17.3931,45.7354,122.986,163.626,272.257,3.19254
0.74,48.2395,17.5415,48.2581,126.133,157.354,-313.605,3.55684
0.76,50.8191,17.7107,50.8432,129.256,156.152,-60.0999,3.95153
0.78,53.4612,17.903,53.4923,132.453,159.806,182.702,4.37985
0.8,56.1629,18.1208,56.2027,135.523,153.525,-314.01,4.84305
0.82,58.9234,18.3667,58.9742,138.574,152.558,-48.3482,5.34359
0.84,61.7419,18.6435,61.8063,141.603,151.426,-56.6181,5.88341
0.86,64.6172,18.9544,64.6983,144.6,149.884,-77.0905,6.46501
0.88,67.5477,19.3025,67.6494,147.557,147.808,-103.809,7.09099
0.9,70.5316,19.6913,70.6585,150.456,144.972,-141.803,7.76408
0.92,73.568,20.1246,73.7257,153.36,145.2,11.3812,8.48784
0.94,76.6544,20.6064,76.8495,156.188,141.387,-190.625,9.26546
0.96,79.7878,21.1408,80.0281,158.931,137.165,-211.086,10.0993
0.98,82.9674,21.7325,83.2623,161.709,138.89,86.2057,10.9942
1,86.1885,22.3859,86.549,164.337,131.393,-374.845,11.9519
1.02,89.4173,23.099,89.8556,165.329,49.6223,-4088.52,12.9679
1.04,92.6191,23.8674,93.1483,164.635,-34.6857,-4215.4,14.0322
1.06,95.7916,24.6928,96.4265,163.909,-36.3147,-81.4515,15.1465
1.08,98.9327,25.5772,99.6897,163.16,-37.4584,-57.1862,16.3121
1.1,102.041,26.5225,102.938,162.423,-36.8538,30.2331,17.5289
1.12,105.113,27.5301,106.172,161.688,-36.7246,6.45895,18.7983
1.14,108.148,28.602,109.39,160.911,-38.8676,-107.152,20.119
1.16,111.143,29.7395,112.594,160.195,-35.8079,152.988,21.493
1.18,114.095,30.944,115.782,159.401,-39.7075,-194.982,22.9195
1.2,117.001,32.2172,118.955,158.654,-37.3557,117.589,24.3964
1.22,119.861,33.5598,122.114,157.95,-35.1703,109.273,25.9251
1.24,122.669,34.973,125.258,157.189,-38.0807,-145.522,27.5025
1.26,125.426,36.458,128.39,156.584,-30.2186,393.104,29.1264
1.28,128.128,38.0148,131.507,155.894,-34.51,-214.57,30.7959
1.3,130.771,39.6445,134.613,155.289,-30.2307,213.965,32.5056
1.32,133.356,41.3472,137.708,154.747,-27.1115,155.963,34.254
1.34,135.879,43.1233,140.794,154.291,-22.802,215.473,36.0353
1.36,138.339,44.9725,143.871,153.85,-22.0835,35.9245,37.8454
1.38,140.734,46.8949,146.942,153.564,-14.29,389.677,39.6789
1.4,143.061,48.8899,150.008,153.266,-14.879,-29.4505,41.5299
1.42,145.319,50.957,153.069,153.073,-9.66617,260.642,43.3928
1.44,147.51,53.0955,156.13,153.051,-1.079,429.358,45.2611
1.46,149.627,55.3044,159.19,153.006,-2.24231,-58.1655,47.1285
1.48,151.674,57.5826,162.253,153.141,6.73678,448.954,48.9886
1.5,153.65,59.9288,165.32,153.359,10.8857,207.448,50.8355
1.52,155.551,62.3416,168.392,153.596,11.8687,49.1462,52.6629
1.54,157.38,64.8192,171.472,153.977,19.0538,359.256,54.4654
1.56,159.136,67.3597,174.56,154.415,21.8868,141.652,56.2381
1.58,160.818,69.9613,177.658,154.889,23.7174,91.5278,57.9757
1.6,162.428,72.6216,180.767,155.476,29.3227,280.266,59.6756
1.62,163.964,75.3389,183.889,156.085,30.4571,56.7201,61.3314
1.64,165.429,78.1102,187.023,156.722,31.8658,70.4339,62.9433
1.66,166.822,80.9334,190.172,157.411,34.4159,127.506,64.507
1.68,168.145,83.8063,193.335,158.145,36.7075,114.578,66.0208
1.7,169.399,86.7255,196.512,158.863,35.8971,-40.5164,67.4851
1.72,170.585,89.6898,199.704,159.629,38.2962,119.954,68.8959
1.74,171.704,92.6957,202.912,160.376,37.3773,-45.946,70.255
1.76,172.758,95.7412,206.134,161.127,37.5177,7.01902,71.5619
1.78,173.748,98.8239,209.372,161.891,38.2479,36.5122,72.8163
1.8,174.676,101.941,212.625,162.635,37.1587,-54.4606,74.0189
1.82,175.544,105.092,215.893,163.409,38.7053,77.3314,75.1694
1.84,176.353,108.272,219.175,164.075,33.3136,-269.589,76.27
1.86,177.106,111.482,222.471,164.833,37.8907,228.855,77.321
1.88,177.803,114.712,225.776,165.246,20.6754,-860.762,78.3217
1.9,178.437,117.916,229.042,163.269,-98.8629,-5976.92,79.2603
1.92,179.011,121.075,232.253,160.562,-135.34,-1823.86,80.1349
1.94,179.529,124.189,235.409,157.821,-137.062,-86.0797,80.951
1.96,179.996,127.254,238.51,155.013,-140.382,-165.994,81.7116
1.98,180.416,130.268,241.553,152.184,-141.449,-53.3454,82.4194
2,180.793,133.23,244.538,149.259,-146.262,-240.684,83.0783
2.02,181.13,136.138,247.466,146.385,-143.721,127.049,83.691
2.04,181.43,138.99,250.334,143.374,-150.561,-342.012,84.2599
2.06,181.699,141.784,253.141,140.36,-150.667,-5.29642,84.7876
2.08,181.937,144.52,255.888,137.337,-151.15,-24.1329,85.2763
2.1,182.146,147.198,258.573,134.298,-151.962,-40.6098,85.7288
2.12,182.333,149.815,261.198,131.204,-154.706,-137.177,86.1474
2.14,182.496,152.369,263.756,127.947,-162.838,-406.602,86.5335
2.16,182.639,154.863,266.254,124.879,-153.418,471.009,86.8892
2.18,182.764,157.293,268.688,121.694,-159.249,-291.572,87.2164
2.2,182.873,159.66,271.057,118.448,-162.297,-152.375,87.5165
2.22,182.967,161.962,273.361,115.222,-161.312,49.2531,87.792
2.24,183.048,164.201,275.601,111.988,-161.658,-17.3174,88.044
2.26,183.118,166.373,277.774,108.658,-166.53,-243.625,88.2726
2.28,183.177,168.479,279.882,105.382,-163.813,135.887,88.4812
2.3,183.228,170.52,281.923,102.051,-166.53,-135.861,88.6704
2.32,183.271,172.494,283.897,98.7111,-166.992,-23.0796,88.841
2.34,183.307,174.401,285.805,95.3915,-165.982,50.4769,88.9952
2.36,183.337,176.24,287.644,91.9721,-170.972,-249.499,89.1331
2.38,183.362,178.014,289.418,88.6758,-164.813,307.925,89.2566
2.4,183.383,179.719,291.123,85.2655,-170.515,-285.054,89.3668
2.42,183.399,181.352,292.756,81.6613,-180.211,-484.832,89.4633
2.44,183.413,182.92,294.325,78.4116,-162.485,886.32,89.5493
2.46,183.423,184.418,295.822,74.8762,-176.771,-714.3,89.6238
2.48,183.432,185.848,297.252,71.5044,-168.588,409.119,89.6894
2.5,183.439,187.205,298.609,67.8439,-183.024,-721.77,89.7453
2.52,183.444,188.497,299.901,64.6018,-162.107,1045.83,89.7937
2.54,183.448,189.719,301.123,61.0998,-175.099,-649.615,89.8353
2.56,183.451,190.865,302.269,57.3123,-189.376,-713.848,89.8691
2.58,183.453,191.942,303.347,53.8829,-171.468,895.406,89.898
2.6,183.455,192.951,304.355,50.4065,-173.818,-117.509,89.9218
2.62,183.456,193.888,305.293,46.8786,-176.395,-128.805,89.9406
2.64,183.457,194.759,306.163,43.5248,-167.69,435.223,89.9562
2.66,183.457,195.558,306.963,39.9667,-177.908,-510.904,89.9689
2.68,183.458,196.271,307.675,35.6288,-216.894,-1949.32,89.9773
2.7,183.458,196.92,308.324,32.4533,-158.775,2905.99,89.984
2.72,183.458,197.515,308.92,29.772,-134.062,1235.65,89.9894
2.74,183.458,197.994,309.399,23.9524,-290.984,-7846.13,89.9927
2.76,183.458,198.451,309.856,22.8567,-54.7835,11810,89.9957
2.78,183.458,198.732,310.137,14.0298,-441.345,-19328.1,89.9971
2.8,183.458,198.922,310.326,9.49423,-226.778,10728.3,89.9975
2.82,183.458,199.111,310.515,9.44423,-2.5,11213.9,89.9979
2.84,183.458,199.3,310.705,9.49278,2.42782,246.391,89.9984
2.86,183.458,199.49,310.895,9.49423,0.0721803,-117.782,89.9988
