"time","x","y","position","velocity","acceleration","jerk","heading"
0,20,163.458,0,0,0,0,0
0.02,20.0894,163.458,0.0894,4.47,223.5,11175,0
0.04,20.1789,163.458,0.1789,4.475,0.25,-11162.5,0
0.06,20.2683,163.458,0.2683,4.47,-0.25,-25,0
0.08,20.3578,163.458,0.3578,4.475,0.25,25,0
0.1,20.4472,163.458,0.4472,4.47,-0.25,-25,0
0.12,20.5367,163.458,0.5367,4.475,0.25,25,0
0.14,20.6261,163.458,0.6261,4.47,-0.25,-25,0
0.16,20.7155,163.458,0.7155,4.47,-8.57092e-12,12.5,0
0.18,20.805,163.458,0.805,4.475,0.25,12.5,0
0.2,20.8944,163.458,0.8944,4.47,-0.25,-25,0
0.22,20.9839,163.458,0.9839,4.475,0.25,25,0
0.24,21.177,163.458,1.177,9.655,259,12937.5,0
0.26,21.3929,163.458,1.3929,10.795,57,-10100,0
0.28,21.6089,163.458,1.6089,10.8,0.25,-2837.5,0
0.3,21.8248,163.458,1.8248,10.795,-0.25,-25,0
0.32,22.0531,163.458,2.0531,11.415,31,1562.5,0
0.34,22.3345,163.458,2.3345,14.07,132.75,5087.5,0
0.36,22.6159,163.458,2.6159,14.07,1.08358e-11,-6637.5,0
0.38,22.8973,163.458,2.8973,14.07,-1.95399e-12,-6.39488e-10,0
0.4,23.212,163.458,3.212,15.735,83.25,4162.5,0
0.42,23.5458,163.458,3.5458,16.69,47.75,-1775,0
0.44,23.8796,163.458,3.8796,16.69,-2.30926e-12,-2387.5,0
0.46,24.2422,163.458,4.2422,18.13,72,3600,0
0.48,24.6211,163.458,4.6211,18.945,40.75,-1562.5,0
0.5,25,163.458,5,18.945,6.21725e-12,-2037.5,0
0.52,25.4191,163.458,5.4191,20.955,100.5,5025,0
0.54,25.8382,163.458,5.8382,20.955,0,-5025,0
0.56,26.2798,163.458,6.2798,22.08,56.25,2812.5,0
0.58,26.7355,163.458,6.7355,22.785,35.25,-1050,0
0.6,27.2054,163.458,7.2054,23.495,35.5,12.5,0
0.62,27.6951,163.458,7.6951,24.485,49.5,700,0
0.64,28.1967,163.458,8.1967,25.08,29.75,-987.5,0
0.66,28.718,163.458,8.718,26.065,49.25,975,0
0.68,29.253,163.458,9.253,26.75,34.25,-750,0
0.7,29.8041,163.458,9.8041,27.555,40.25,300,0
0.72,30.3736,163.458,10.3736,28.475,46,287.5,0
0.74,30.9531,163.458,10.9531,28.975,25,-1050,0
0.76,31.5574,163.458,11.5574,30.215,62,1850,0
0.78,32.1708,163.458,12.1708,30.67,22.75,-1962.5,0
0.8,32.8032,163.458,12.8032,31.62,47.5,1237.5,0
0.82,33.4526,163.458,13.4526,32.47,42.5,-250,0
0.84,34.1137,163.458,14.1137,33.055,29.25,-662.5,0
0.86,34.7948,163.458,14.7948,34.055,50,1037.5,0
0.88,35.492,163.458,15.492,34.86,40.25,-487.5,0
0.9,36.2024,163.458,16.2024,35.52,33,-362.5,0
0.92,36.929,163.458,16.929,36.33,40.5,375,0
0.94,37.6751,163.458,17.6751,37.305,48.75,412.5,0
0.96,38.4353,163.458,18.4353,38.01,35.25,-675,0
0.98,39.2101,163.458,19.2101,38.74,36.5,62.5,0
1,40,163.458,20,39.495,37.75,62.5,0
1.02,40.8,163.458,20.8,40,25.25,-625,0
1.04,41.6,163.458,21.6,40,1.77636e-11,-1262.5,0
1.06,42.4,163.458,22.4,40,-1.77636e-11,-1.77636e-09,0
1.08,43.2,163.458,23.2,40,1.77636e-11,1.77636e-09,0
1.1,44,163.458,24,40,-1.77636e-11,-1.77636e-09,0
1.12,44.8,163.458,24.8,40,0,8.88178e-10,0
1.14,45.6,163.458,25.6,40,4.01457e-11,2.00728e-09,0
1.16,46.4,163.458,26.4,40,-4.01457e-11,-4.01457e-09,0
1.18,47.2,163.458,27.2,40,1.77636e-11,2.89546e-09,0
1.2,48,163.458,28,40,-1.77636e-11,-1.77636e-09,0
1.22,48.8,163.458,28.8,40,0,8.88178e-10,0
1.24,49.6,163.458,29.6,40,1.77636e-11,8.88178e-10,0
1.26,50.4,163.458,30.4,40,-1.77636e-11,-1.77636e-09,0
1.28,51.2,163.458,31.2,40,1.77636e-11,1.77636e-09,0
1.3,52,163.458,32,40,-1.77636e-11,-1.77636e-09,0
1.32,52.8,163.458,32.8,40,0,8.88178e-10,0
1.34,53.6,163.458,33.6,40,1.77636e-11,8.88178e-10,0
1.36,54.4,163.458,34.4,40,-1.77636e-11,-1.77636e-09,0
1.38,55.2,163.458,35.2,40,4.01457e-11,2.89546e-09,0
1.4,56,163.458,36,40,-4.01457e-11,-4.01457e-09,0
1.42,56.8,163.458,36.8,40,0,2.00728e-09,0
1.44,57.6,163.458,37.6,40,1.77636e-11,8.88178e-10,0
1.46,58.4,163.458,38.4,40,-1.77636e-11,-1.77636e-09,0
1.48,59.2,163.458,39.2,40,1.77636e-11,1.77636e-09,0
1.5,60,163.458,40,40,-1.77636e-11,-1.77636e-09,0
1.52,60.8,163.458,40.8,40,0,8.88178e-10,0
1.54,61.6,163.458,41.6,40,1.77636e-11,8.88178e-10,0
1.56,62.4,163.458,42.4,40,-1.77636e-11,-1.77636e-09,0
1.58,63.2,163.458,43.2,40,1.77636e-11,1.77636e-09,0
1.6,64,163.458,44,40,-1.77636e-11,-1.77636e-09,0
1.62,64.8,163.458,44.8,40,0,8.88178e-10,0
1.64,65.6,163.458,45.6,40,2.23821e-11,1.1191e-09,0
1.66,66.4,163.458,46.4,40,1.3145e-11,-4.61853e-10,0
1.68,67.2,163.458,47.2,40,-3.55271e-11,-2.43361e-09,0
1.7,68,163.458,48,40,0,1.77636e-09,0
1.72,68.8,163.458,48.8,40,0,0,0
1.74,69.6,163.458,49.6,40,0,0,0
1.76,70.4,163.458,50.4,40,3.55271e-11,1.77636e-09,0
1.78,71.2,163.458,51.2,40,-3.55271e-11,-3.55271e-09,0
1.8,72,163.458,52,40,0,1.77636e-09,0
1.82,72.8,163.458,52.8,40,0,0,0
1.84,73.6,163.458,53.6,40,0,0,0
1.86,74.4,163.458,54.4,40,3.55271e-11,1.77636e-09,0
1.88,75.2,163.458,55.2,40,-1.3145e-11,-2.43361e-09,0
1.9,76,163.458,56,40,-2.23821e-11,-4.61853e-10,0
1.92,76.8,163.458,56.8,40,0,1.1191e-09,0
1.94,77.6,163.458,57.6,40,0,0,0
1.96,78.4,163.458,58.4,40,3.55271e-11,1.77636e-09,0
1.98,79.2,163.458,59.2,40,-3.55271e-11,-3.55271e-09,0
2,80,163.458,60,40,0,1.77636e-09,0
2.02,80.8,163.458,60.8,40,0,0,0
2.04,81.6,163.458,61.6,40,0,0,0
2.06,82.4,163.458,62.4,40,3.55271e-11,1.77636e-09,0
2.08,83.2,163.458,63.2,40,-3.55271e-11,-3.55271e-09,0
2.1,84,163.458,64,40,0,1.77636e-09,0
2.12,84.8,163.458,64.8,40,0,0,0
2.14,85.6,163.458,65.6,40,0,0,0
2.16,86.4,163.458,66.4,40,3.55271e-11,1.77636e-09,0
2.18,87.2,163.458,67.2,40,-3.55271e-11,-3.55271e-09,0
2.2,88,163.458,68,40,0,1.77636e-09,0
2.22,88.8,163.458,68.8,40,0,0,0
2.24,89.6,163.458,69.6,40,0,0,0
2.26,90.4,163.458,70.4,40,7.99361e-11,3.9968e-09,0
2.28,91.2,163.458,71.2,40,-7.99361e-11,-7.99361e-09,0
2.3,92,163.458,72,40,0,3.9968e-09,0
2.32,92.8,163.458,72.8,40,0,0,0
2.34,93.6,163.458,73.6,40,0,0,0
2.36,94.4,163.458,74.4,40,3.55271e-11,1.77636e-09,0
2.38,95.2,163.458,75.2,40,-3.55271e-11,-3.55271e-09,0
2.4,96,163.458,76,40,0,1.77636e-09,0
2.42,96.8,163.458,76.8,40,0,0,0
2.44,97.6,163.458,77.6,40,0,0,0
2.46,98.4,163.458,78.4,40,3.55271e-11,1.77636e-09,0
2.48,99.2,163.458,79.2,40,-3.55271e-11,-3.55271e-09,0
2.5,100,163.458,80,40,0,1.77636e-09,0
2.52,100.8,163.458,80.8,40,0,0,0
2.54,101.6,163.458,81.6,40,0,0,0
2.56,102.4,163.458,82.4,40,3.55271e-11,1.77636e-09,0
2.58,103.2,163.458,83.2,40,-3.55271e-11,-3.55271e-09,0
2.6,104,163.458,84,40,0,1.77636e-09,0
2.62,104.8,163.458,84.8,40,0,0,0
2.64,105.6,163.458,85.6,40,0,0,0
2.66,106.4,163.458,86.4,40,3.55271e-11,1.77636e-09,0
2.68,107.2,163.458,87.2,40,-3.55271e-11,-3.55271e-09,0
2.7,108,163.458,88,40,0,1.77636e-09,0
2.72,108.8,163.458,88.8,40,0,0,0
2.74,109.6,163.458,89.6,40,0,0,0
2.76,110.4,163.458,90.4,40,7.99361e-11,3.9968e-09,0
2.78,111.2,163.458,91.2,40,-7.99361e-11,-7.99361e-09,0
2.8,112,163.458,92,40,0,3.9968e-09,0
2.82,112.8,163.458,92.8,40,0,0,0
2.84,113.6,163.458,93.6,40,0,0,0
2.86,114.4,163.458,94.4,40,3.55271e-11,1.77636e-09,0
2.88,115.2,163.458,95.2,40,-3.55271e-11,-3.55271e-09,0
2.9,116,163.458,96,40,0,1.77636e-09,0
2.92,116.8,163.458,96.8,40,0,0,0
2.94,117.6,163.458,97.6,40,0,0,0
2.96,118.4,163.458,98.4,40,3.55271e-11,1.77636e-09,0
2.98,119.2,163.458,99.2,40,-3.55271e-11,-3.55271e-09,0
3,120,163.458,100,40,0,1.77636e-09,0
3.02,120.8,163.458,100.8,40,0,0,0
3.04,121.6,163.458,101.6,40,0,0,0
3.06,122.4,163.458,102.4,40,3.55271e-11,1.77636e-09,0
3.08,123.2,163.458,103.2,40,-3.55271e-11,-3.55271e-09,0
3.1,124,163.458,104,40,0,1.77636e-09,0
3.12,124.8,163.458,104.8,40,0,0,0
3.14,125.6,163.458,105.6,40,0,0,0
3.16,126.4,163.458,106.4,40,3.55271e-11,1.77636e-09,0
3.18,127.2,163.458,107.2,40,-3.55271e-11,-3.55271e-09,0
3.2,128,163.458,108,40,0,1.77636e-09,0
3.22,128.8,163.458,108.8,40,3.55271e-11,1.77636e-09,0
3.24,129.6,163.458,109.6,40,-7.10543e-11,-5.32907e-09,0
3.26,130.4,163.458,110.4,40,1.15463e-10,9.32587e-09,0
3.28,131.2,163.458,111.2,40,-1.15463e-10,-1.15463e-08,0
3.3,132,163.458,112,40,7.10543e-11,9.32587e-09,0
3.32,132.8,163.458,112.8,40,0,-3.55271e-09,0
3.34,133.6,163.458,113.6,40,-7.10543e-11,-3.55271e-09,0
3.36,134.4,163.458,114.4,40,7.10543e-11,7.10543e-09,0
3.38,135.2,163.458,115.2,40,-7.10543e-11,-7.10543e-09,0
3.4,136,163.458,116,40,7.10543e-11,7.10543e-09,0
3.42,136.8,163.458,116.8,40,0,-3.55271e-09,0
3.44,137.6,163.458,117.6,40,-7.10543e-11,-3.55271e-09,0
3.46,138.4,163.458,118.4,40,7.10543e-11,7.10543e-09,0
3.48,139.2,163.458,119.2,40,-7.10543e-11,-7.10543e-09,0
3.5,140,163.458,120,40,7.10543e-11,7.10543e-09,0
3.52,140.8,163.458,120.8,40,0,-3.55271e-09,0
3.54,141.6,163.458,121.6,40,-7.10543e-11,-3.55271e-09,0
3.56,142.4,163.458,122.4,40,7.10543e-11,7.10543e-09,0
3.58,143.2,163.458,123.2,40,-7.10543e-11,-7.10543e-09,0
3.6,144,163.458,124,40,7.10543e-11,7.10543e-09,0
3.62,144.8,163.458,124.8,40,0,-3.55271e-09,0
3.64,145.6,163.458,125.6,40,-7.10543e-11,-3.55271e-09,0
3.66,146.4,163.458,126.4,40,7.10543e-11,7.10543e-09,0
3.68,147.2,163.458,127.2,40,-7.10543e-11,-7.10543e-09,0
3.7,148,163.458,128,40,7.10543e-11,7.10543e-09,0
3.72,148.8,163.458,128.8,40,0,-3.55271e-09,0
3.74,149.6,163.458,129.6,40,-7.10543e-11,-3.55271e-09,0
3.76,150.4,163.458,130.4,40,1.15463e-10,9.32587e-09,0
3.78,151.2,163.458,131.2,40,-1.15463e-10,-1.15463e-08,0
3.8,152,163.458,132,40,7.10543e-11,9.32587e-09,0
3.82,152.8,163.458,132.8,40,0,-3.55271e-09,0
3.84,153.6,163.458,133.6,40,-7.10543e-11,-3.55271e-09,0
3.86,154.4,163.458,134.4,40,7.10543e-11,7.10543e-09,0
3.88,155.2,163.458,135.2,40,-7.10543e-11,-7.10543e-09,0
3.9,156,163.458,136,40,7.10543e-11,7.10543e-09,0
3.92,156.8,163.458,136.8,40,0,-3.55271e-09,0
3.94,157.6,163.458,137.6,40,-7.10543e-11,-3.55271e-09,0
3.96,158.4,163.458,138.4,40,7.10543e-11,7.10543e-09,0
3.98,159.2,163.458,139.2,40,-7.10543e-11,-7.10543e-09,0
4,160,163.458,140,40,7.10543e-11,7.10543e-09,0
4.02,160.8,163.458,140.8,40,4.44089e-11,-1.33227e-09,0
4.04,161.6,163.458,141.6,40,-1.59872e-10,-1.02141e-08,0
4.06,162.4,163.458,142.4,40,1.59872e-10,1.59872e-08,0
4.08,163.2,163.458,143.2,40,-1.59872e-10,-1.59872e-08,0
4.1,164,163.458,144,40,1.59872e-10,1.59872e-08,0
4.12,164.8,163.458,144.8,40,-8.88178e-11,-1.24345e-08,0
4.14,165.6,163.458,145.6,40,1.77636e-11,5.32907e-09,0
4.16,166.4,163.458,146.4,40,-1.77636e-11,-1.77636e-09,0
4.18,167.2,163.458,147.2,40,1.77636e-11,1.77636e-09,0
4.2,168,163.458,148,40,-1.77636e-11,-1.77636e-09,0
4.22,168.8,163.458,148.8,40,8.88178e-11,5.32907e-09,0
4.24,169.6,163.458,149.6,40,-1.59872e-10,-1.24345e-08,0
4.26,170.4,163.458,150.4,40,1.59872e-10,1.59872e-08,0
4.28,171.2,163.458,151.2,40,-1.59872e-10,-1.59872e-08,0
4.3,172,163.458,152,40,1.59872e-10,1.59872e-08,0
4.32,172.8,163.458,152.8,40,-8.88178e-11,-1.24345e-08,0
4.34,173.6,163.458,153.6,40,1.77636e-11,5.32907e-09,0
4.36,174.4,163.458,154.4,40,-1.77636e-11,-1.77636e-09,0
4.38,175.2,163.458,155.2,40,1.77636e-11,1.77636e-09,0
4.4,176,163.458,156,40,-1.77636e-11,-1.77636e-09,0
4.42,176.8,163.458,156.8,40,8.88178e-11,5.32907e-09,0
4.44,177.6,163.458,157.6,40,-1.59872e-10,-1.24345e-08,0
4.46,178.4,163.458,158.4,40,1.59872e-10,1.59872e-08,0
4.48,179.2,163.458,159.2,40,-1.59872e-10,-1.59872e-08,0
4.5,180,163.458,160,40,1.59872e-10,1.59872e-08,0
4.52,180.8,163.458,160.8,40,0,-7.99361e-09,0
4.54,181.6,163.458,161.6,40,-1.59872e-10,-7.99361e-09,0
4.56,182.4,163.458,162.4,40,1.59872e-10,1.59872e-08,0
4.58,183.2,163.458,163.2,40,-1.59872e-10,-1.59872e-08,0
4.6,184,163.458,164,40,1.59872e-10,1.59872e-08,0
4.62,184.8,163.458,164.8,40,-8.88178e-11,-1.24345e-08,0
4.64,185.6,163.458,165.6,40,1.77636e-11,5.32907e-09,0
4.66,186.4,163.458,166.4,40,-1.77636e-11,-1.77636e-09,0
4.68,187.2,163.458,167.2,40,1.77636e-11,1.77636e-09,0
4.7,188,163.458,168,40,-1.77636e-11,-1.77636e-09,0
4.72,188.8,163.458,168.8,40,8.88178e-11,5.32907e-09,0
4.74,189.6,163.458,169.6,40,-1.59872e-10,-1.24345e-08,0
4.76,190.4,163.458,170.4,40,1.59872e-10,1.59872e-08,0
4.78,191.2,163.458,171.2,40,-1.59872e-10,-1.59872e-08,0
4.8,192,163.458,172,40,1.59872e-10,1.59872e-08,0
4.82,192.8,163.458,172.8,40,-8.88178e-11,-1.24345e-08,0
4.84,193.6,163.458,173.6,40,1.77636e-11,5.32907e-09,0
4.86,194.4,163.458,174.4,40,-1.77636e-11,-1.77636e-09,0
4.88,195.2,163.458,175.2,40,1.77636e-11,1.77636e-09,0
4.9,196,163.458,176,40,-1.77636e-11,-1.77636e-09,0
4.92,196.8,163.458,176.8,40,8.88178e-11,5.32907e-09,0
4.94,197.6,163.458,177.6,40,-1.59872e-10,-1.24345e-08,0
4.96,198.4,163.458,178.4,40,1.59872e-10,1.59872e-08,0
4.98,199.2,163.458,179.2,40,-1.59872e-10,-1.59872e-08,0
5,200,163.458,180,40,1.59872e-10,1.59872e-08,0
5.02,200.79,163.458,180.79,39.5,-25,-1250,0
5.04,201.565,163.458,181.565,38.75,-37.5,-625,0
5.06,202.325,163.458,182.325,38,-37.5,4.97948e-09,0
5.08,203.071,163.458,183.071,37.3,-35,125,0
5.1,203.798,163.458,183.798,36.35,-47.5,-625,0
5.12,204.508,163.458,184.508,35.5,-42.5,250,0
5.14,205.205,163.458,185.205,34.85,-32.5,500,0
5.16,205.886,163.458,185.886,34.05,-40,-375,0
5.18,206.547,163.458,186.547,33.05,-50,-500,0
5.2,207.197,163.458,187.197,32.5,-27.5,1125,0
5.22,207.829,163.458,187.829,31.6,-45,-875,0
5.24,208.443,163.458,188.443,30.7,-45,-6.93454e-09,0
5.26,209.047,163.458,189.047,30.2,-25,1000,0
5.28,209.626,163.458,189.626,28.95,-62.5,-1875,0
5.3,210.196,163.458,190.196,28.5,-22.5,2000,0
5.32,210.747,163.458,190.747,27.55,-47.5,-1250,0
5.34,211.282,163.458,191.282,26.75,-40,375,0
5.36,211.803,163.458,191.803,26.05,-35,250,0
5.38,212.305,163.458,192.305,25.1,-47.5,-625,0
5.4,212.795,163.458,192.795,24.5,-30,875,0
5.42,213.265,163.458,193.265,23.5,-50,-1000,0
5.44,213.72,163.458,193.72,22.75,-37.5,625,0
5.46,214.162,163.458,194.162,22.1,-32.5,250,0
5.48,214.581,163.458,194.581,20.95,-57.5,-1250,0
5.5,215,163.458,195,20.95,1.17595e-10,2875,0
5.52,215.379,163.458,195.379,18.95,-100,-5000,0
5.54,215.758,163.458,195.758,18.95,2.89546e-11,5000,0
5.56,216.12,163.458,196.12,18.1,-42.5,-2125,0
5.58,216.454,163.458,196.454,16.7,-70,-1375,0
5.6,216.788,163.458,196.788,16.7,3.71259e-11,3500,0
5.62,217.103,163.458,197.103,15.75,-47.5,-2375,0
5.64,217.384,163.458,197.384,14.05,-85,-1875,0
5.66,217.666,163.458,197.666,14.1,2.5,4375,0
5.68,217.947,163.458,197.947,14.05,-2.5,-250,0
5.7,218.175,163.458,198.175,11.4,-132.5,-6500,0
5.72,218.391,163.458,198.391,10.8,-30,5125,0
5.74,218.607,163.458,198.607,10.8,4.70735e-11,1500,0
5.76,218.823,163.458,198.823,10.8,2.39808e-11,-1.15463e-09,0
5.78,219.016,163.458,199.016,9.65,-57.5,-2875,0
5.8,219.106,163.458,199.106,4.5,-257.5,-10000,0
5.82,219.195,163.458,199.195,4.45,-2.5,12750,0
5.84,219.284,163.458,199.284,4.45,9.90319e-12,125,0
5.86,219.374,163.458,199.374,4.5,2.5,125,0
5.88,219.463,163.458,199.463,4.45,-2.5,-250,0
5.9,219.553,163.458,199.553,4.5,2.5,250,0
5.92,219.642,163.458,199.642,4.45,-2.5,-250,0
5.94,219.732,163.458,199.732,4.5,2.5,250,0
5.96,219.821,163.458,199.821,4.45,-2.5,-250,0
5.98,219.911,163.458,199.911,4.5,2.5,250,0
6,220,163.458,200,4.45,-2.5,-250,0
